D=0.0 (mm^2/w),D=0.1 (mm^2/w),D=0.2 (mm^2/w),D=0.3 (mm^2/w),D=0.4 (mm^2/w),D=0.5 (mm^2/w),D=0.6 (mm^2/w),D=0.7 (mm^2/w),D=0.8 (mm^2/w),D=0.9 (mm^2/w),D=1.0 (mm^2/w)
0.0,0.0,0.0,0.0,0.0,0.0,0.0,0.0,0.0,0.0,0.0
0.01639792,0.01639792,0.01639792,0.01639792,0.01639792,0.01639792,0.01639792,0.01639792,0.01639792,0.01639792,0.01639792
0.1062856850832263,0.1062856850832263,0.1062856850832263,0.1062856850832263,0.1062856850832263,0.1062856850832263,0.1062856850832263,0.1062856850832263,0.1062856850832263,0.1062856850832263,0.10628568508322632
0.1942396818360826,0.1942396818360826,0.1942396818360826,0.1942396818360826,0.1942396818360826,0.1942396818360826,0.1942396818360826,0.1942396818360826,0.1942396818360826,0.1942396818360826,0.19423968183608267
0.2786435128878679,0.2786435129194233,0.2786435129509789,0.2786435129825343,0.2786435130140898,0.2786435130456453,0.2786435130772008,0.2786435131087563,0.2786435131403117,0.2786435131718672,0.27864351320342273
0.3594227866418487,0.3594227870531741,0.3594227874643185,0.3594227878752818,0.3594227882860641,0.3594227886966653,0.3594227891070854,0.3594227895173245,0.3594227899273825,0.3594227903372594,0.35942279074695527
0.4367617535388419,0.4367617555178229,0.4367617574944408,0.4367617594686975,0.4367617614405953,0.4367617634101362,0.4367617653773223,0.4367617673421556,0.4367617693046385,0.4367617712647728,0.4367617732225607
0.5108872546505371,0.5108872609055308,0.5108872671480184,0.5108872733780281,0.5108872795955883,0.5108872858007275,0.5108872919934738,0.5108872981738554,0.5108873043419008,0.5108873104976379,0.5108873166410949
0.5820182140382077,0.5820182295715287,0.5820182450610601,0.5820182605069666,0.5820182759094116,0.5820182912685589,0.5820183065845712,0.5820183218576107,0.58201833708784,0.5820183522754201,0.5820183674205119
0.6503536988642915,0.6503537317871498,0.6503537645900973,0.650353797273766,0.6503538298387843,0.6503538622857788,0.6503538946153721,0.6503539268281836,0.650353958924831,0.6503539909059279,0.650354022772085
0.7160716511107604,0.7160717134594397,0.7160717755297846,0.7160718373236878,0.7160718988430286,0.7160719600896744,0.7160720210654796,0.716072081772286,0.7160721422119236,0.7160722023862096,0.7160722622969485
0.7793306447180629,0.7793307532397828,0.7793308611882198,0.7793309685681495,0.7793310753843061,0.7793311816413836,0.7793312873440346,0.7793313924968714,0.7793314971044671,0.7793316011713546,0.7793317047020266
0.8402723181401951,0.8402724950239588,0.8402726708293932,0.8402728455671304,0.8402730192476899,0.8402731918814806,0.8402733634788002,0.8402735340498376,0.8402737036046738,0.8402738721532824,0.8402740397055307
0.8990237383853464,0.8990240119185426,0.8990242835632694,0.8990245533410255,0.8990248212730404,0.8990250873802788,0.8990253516834413,0.8990256142029697,0.8990258749590492,0.8990261339716114,0.8990263912603368
0.95569948334553,0.9556998884814724,0.9557002904958072,0.9557006894288091,0.9557010853201704,0.9557014782090104,0.955701868133881,0.9557022551327772,0.9557026392431442,0.9557030205018836,0.9557033989453629
1.0104034101813877,1.010403989006547,1.0104045629123135,1.0104051319695817,1.0104056962480836,1.0104062558164102,1.0104068107420272,1.0104073610912936,1.0104079069294811,1.010408448320791,1.0104089853283684
1.063230136577814,1.0632309386704184,1.0632317333156414,1.0632325206319808,1.063233300735763,1.0632340737411858,1.063234839760356,1.063235598903326,1.063236351278135,1.0632370969908436,1.0632378361455694
1.114266276885047,1.114267359559106,1.114268431338672,1.1142694924133207,1.1142705429687898,1.114271583187063,1.1142726132464444,1.1142736333216328,1.1142746435837974,1.1142756442006492,1.1142766353365126
1.1635914748551075,1.163592903285889,1.1635943162448987,1.1635957140242343,1.163597096909526,1.1635984651800848,1.1635998191090453,1.1636011589635027,1.1636024850046531,1.1636037974879248,1.1636050966631093
1.211279269490423,1.2112811167190145,1.211282942537162,1.211284747380476,1.2112865316740962,1.2112882958329514,1.2112900402620133,1.211291765356539,1.2112934715023165,1.2112951590758954,1.2112968284448191
1.2573978244041335,1.2574001712200504,1.257402489076685,1.2574047786053224,1.2574070404208817,1.2574092751223571,1.2574114832932466,1.2574136655019656,1.257415822302256,1.2574179542335786,1.2574200618214986
1.3020105454433633,1.302013480145258,1.3020163764658546,1.3020192352970763,1.3020220575060517,1.3020248439358328,1.3020275954060958,1.3020303127138153,1.3020329966339257,1.3020356479199593,1.3020382673046675
1.3451766065422577,1.3451802245776836,1.345183792663324,1.345187312031094,1.3451907838763646,1.3451942093591045,1.34519758960498,1.3452009257064197,1.345204218723651,1.3452074696857006,1.3452106795913648
1.386951399869718,1.3869558033556275,1.3869601428978084,1.3869644201633813,1.3869686367669316,1.3869727942722587,1.3869768941940612,1.3869809379995637,1.386984927110097,1.3869888629026177,1.3869927467111818
1.4273869232101342,1.4273922203363978,1.4273974368200426,1.4274025748757757,1.4274076366444512,1.4274126241956826,1.4274175395303557,1.42742238458305,1.4274271612243814,1.4274318712632528,1.4274365164490306
1.4665321150287554,1.466538419347461,1.4665446233454802,1.4665507299157028,1.4665567418492935,1.4665626618394976,1.4665684924852995,1.4665742362949388,1.4665798956893012,1.466585473005173,1.4665909704983773
1.5044331456997135,1.5044405753034058,1.5044478816664928,1.504455068509595,1.5044621394158004,1.5044690978360955,1.5044759470945728,1.504482690393424,1.5044893308177432,1.5044958713401284,1.504502314825104
1.5411336718066584,1.5411423483989697,1.541150875344612,1.541159257360753,1.5411674989817872,1.541175604566923,1.5411835783074497,1.5411914242336882,1.541199146221656,1.541206747999443,1.541214233153321
1.576675059176572,1.5766851070389505,1.576694975143828,1.5767046693928424,1.5767141954485682,1.57672355874493,1.5767327644971458,1.5767418177112251,1.5767507231930478,1.576759485557033,1.5767681092344272
1.6110965793079512,1.6111081241663645,1.6111194552664687,1.611130579900652,1.611141505053221,1.6111522374144427,1.6111627833939202,1.6111731491333434,1.6111833405186464,1.611193363191591,1.6112032225608128
1.6444355830515127,1.644448750847142,1.644461666850047,1.6444743399665862,1.6444867787115802,1.6444989912269403,1.644510985299374,1.6445227683772248,1.6445343475864889,1.644545729746045,1.6445569213821407
1.6767276547531915,1.6767425703212215,1.676757191935003,1.6767715303528352,1.676785595841909,1.6767993982026457,1.6768129467917774,1.676826250544251,1.676839317994008,1.6768521572937038,1.6768647762334206
1.7080067495430529,1.7080235352037274,1.7080399805870503,1.7080560985529296,1.708071901352911,1.7080874006615194,1.708102607605912,1.7081175327939573,1.708132186340812,1.708146577894085,1.70816071665766
1.7383053160246362,1.7383240900907733,1.738342473428672,1.7383604812571982,1.7383781280505428,1.738395427578023,1.7384123929416622,1.7384290366116868,1.7384453704600542,1.7384614057921206,1.7384771533765613
1.7676544062675503,1.767675281472719,1.76769571148257,1.7677157141348734,1.7677353063662768,1.767754504262186,1.767773323103757,1.767791777412182,1.767809880990428,1.7678276469625671,1.767845087810861
1.7960837747164629,1.7961068565680087,1.796129434940151,1.7961515305458575,1.7961731630197404,1.796194350979771,1.7962151120852907,1.7962354630915571,1.7962554199010383,1.7962749976116448,1.7962942105620994
1.8236219673899017,1.823647352450979,1.8236721722283848,1.8236964505553976,1.823720209988848,1.8237434718845145,1.82376625646784,1.8237885829002844,1.8238104693415729,1.823831933008108,1.823852990227795
1.8502964025429949,1.850324176647712,1.8503513205490243,1.850377861425564,1.85040382496121,1.850429235436072,1.8504541158116323,1.8504784878104568,1.8505023719908225,1.8505257878165835,1.850548753722615
1.8761334438018176,1.8761636802075523,1.876193218897745,1.876222090590967,1.876250324274109,1.876277947310813,1.876304985542728,1.8763314633840944,1.8763574039101147,1.8763828289395048,1.8764077591116566
1.9011584666374424,1.9011912241183109,1.901223214431111,1.9012544719865256,1.90128502921072,1.9013149166729624,1.9013441632045427,1.9013727960096245,1.901400840768584,1.9014283217343608,1.901455261822319
1.9253959189301988,1.9254312398155928,1.925465722931728,1.9254994064775035,1.925532326402652,1.92556451655602,1.9255960088234585,1.9256268332560853,1.925657018189613,1.9256865903553768,1.9257155749836796
1.948869376275264,1.9489072844372897,1.9489442840225013,1.9489804170426217,1.949015722989463,1.949050239004936,1.9490840000388103,1.9491170389951664,1.9491493868683685,1.94918107286934,1.9492121245428664
1.971601592596312,1.9716420913898696,1.9716816116965488,1.971720199276654,1.971757897101417,1.971794745545147,1.971830782563191,1.9718660438568063,1.9719005630259507,1.9719343717108984,1.971967499723557
1.9936145465620567,1.9936576167212312,1.9936996406573904,1.9937406677070169,1.9937807441598367,1.9938199134726649,1.993858216467076,1.9938956915122017,1.993932374693817,1.9939682999707824,1.9940034993198628
2.014929484239092,2.0149750817334016,2.01501956890262,2.015062998357404,2.01510541942796,2.0151468783979576,2.015187418720346,2.015227081216593,2.015265904260664,2.0153039239489687,2.0153411742574208
2.035566958361652,2.035615012215648,2.0356618969314875,2.035707667938774,2.035752377192461,2.035796073423635,2.035838802370539,2.035880606991501,2.035921527661264,2.035961602352076,2.0360008668008205
2.0555468645535977,2.0555972746331754,2.055646463911458,2.05569449000264,2.055741406910427,2.055787265290559,2.0558321126922947,2.0558759937807025,2.055918950541361,2.0559610224689555,2.0560022467411407
2.0748884747987,2.074941109567403,2.0749924810996343,2.0750426483523787,2.0750916666173933,2.075139587787835,2.075186460603283,2.075232330875068,2.075277241693601,2.075321233619257,2.075364344858234
2.093610468421371,2.093665162669878,2.093718562780977,2.0937707279744147,2.093821713858108,2.0938715726882062,2.0939203536079827,2.093968102867472,2.0940148640255285,2.094060678135872,2.094105583918492
2.111730960810535,2.111787513362411,2.1118427549557963,2.11189674372158,2.1119495343722345,2.1120011784409063,2.1120517245012134,2.1121012183695225,2.112149703291263,2.112197220112692,2.1122438074393997
2.129267530093636,2.1293257014903384,2.1293825619833173,2.129438166955359,2.129492568741528,2.12954581682837,2.129597958037675,2.1296490366962275,2.129699094792801,2.129748172123511,2.1297963064265533
2.146237241945381,2.146296752113416,2.146354971365695,2.146411950331253,2.146467737182612,2.1465223777707867,2.146575915751337,2.1466283927022745,2.146679848234516,2.146730320095487,2.1467798442664447
2.162656672696156,2.1627171985991884,2.162776476837237,2.162834550891912,2.16289146264986,2.162947252442863,2.1630019590889096,2.163055619934047,2.163108270894808,2.163159946501004,2.1632106799387216
2.178541930887856,2.178603104166476,2.1786630999063483,2.1787219516154246,2.1787796923956564,2.178836354849948,2.178891971004413,2.178946572244247,2.1790001892616777,2.179052852014572,2.179104589694444
2.1939086774096808,2.193970082011437,2.194030409982567,2.19408968155102,2.194147918120159,2.1942051419955098,2.1942613761467107,2.194316644000869,2.194370969263834,2.194424375766271,2.1944768873317413
2.208772144333067,2.208833314135304,2.2088935432076724,2.2089528346610505,2.2090111948293254,2.2090686327586035,2.2091251597585315,2.209180789008931,2.209235535215617,2.209289414309912,2.2093424431869364
2.2231471525531417,2.223207568981058,2.22326722009804,2.2233260874763285,2.223384158508141,2.2234414255881587,2.223497885393673,2.2235535382515432,2.2236083875822388,2.223662439412295,2.22371570194743
2.2370481283335657,2.2371072179758533,2.237165762094942,2.2372237156613908,2.237281042705538,2.2373377151104497,2.23739371154866,2.2374490165464747,2.2375036196613607,2.237557514759523,2.237610699382192
2.250489118842368,2.2505462510666736,2.250603107110205,2.250659609577012,2.250715694118189,2.2507713077368354,2.250826407295818,2.25088095820508,2.250934933267803,2.250988311667033,2.251041078076467
2.263483806758086,2.2635382913284863,2.2635928241463565,2.26364728891899,2.2637015872521165,2.263755636350594,2.263809366996498,2.2638627217722176,2.263915653499904,2.263968123871813,2.264020102249055
2.2760455240181643,2.2760966087167303,2.276148127063033,2.2761999165048863,2.27625183823368,2.2763037741443224,2.276355624165809,2.2764073039184254,2.2764587426587206,2.2765098814778844,2.2765606717231965
2.2881872647749755,2.288234133029438,2.288281887554853,2.28833031127381,2.288379217834948,2.288428447672792,2.288477864553676,2.288527352549082,2.288576813384702,2.2886261641196315,2.288675335115554
2.299921697618943,2.2999634661383825,2.3000066474000493,2.3000509605584627,2.3000961637725608,2.3001420491803,2.300188438501144,2.3002351791893867,2.300282141070604,2.300329213401653,2.3003763023019137
2.3112611771229656,2.311296893543378,2.311334630033903,2.311374031683388,2.3114147923339474,2.3114566482562613,2.311499372625608,2.3115427706987584,2.3115866756041594,2.311630944668594,2.3116754562130004
2.32221775475761,2.3222463952991057,2.3222777514962774,2.3223113829386346,2.322346909380008,2.3223840028680787,2.322422380883923,2.322461800363524,2.322502052489306,2.3225429581536976,2.322584364009084
2.3328031892222696,2.3328236563596096,2.332847630798296,2.3328745739737906,2.332904020769131,2.33293556981608,2.3329688750580826,2.333003638412527,2.3330396033905445,2.3330765495505768,2.333114287677835
2.343028956233664,2.3430400763817367,2.3430555997493707,2.3430748756535147,2.3430973422436043,2.3431225146514807,2.3431499747043736,2.343179361996477,2.3432103661411685,2.343242720048908,2.343276194096067
2.3529062578095723,2.352906779025365,2.352912712282338,2.352923279412233,2.352937808815977,2.35295572109488,2.3529765166034275,2.352999764668399,2.3530250942526845,2.353052185871298,2.3530807645925895
2.3624460310825985,2.362434620785119,2.3624297533113245,2.3624305061425512,2.362436083689872,2.362445799989689,2.362459063745502,2.36247536539946,2.3624942659596244,2.362515387345492,2.3625384040462722
2.371658956675889,2.3716341993854475,2.3716172471541483,2.3716070146490984,2.3716025667468763,2.371603097822064,2.3716079138824964,2.371616417161609,2.37162809283115,2.371642497543256,2.371659249550641
2.3805554666702164,2.380515861768388,2.38048546554849,2.3804630096969817,2.380447402628613,2.380437704836364,2.380433107675662,2.38043291510594,2.380436527978297,2.38044343051476,2.3804531786737675
2.3891457521894672,2.389089711700994,2.389044435288756,2.3890084496816764,2.3889804884407546,2.3889594627728443,2.388944436465655,2.388934604363364,2.388929273883407,2.3889278491449484,2.38892981733993
2.397439770629489,2.397365617027314,2.3973039455084333,2.3972530539451,2.3972114811036542,2.397177972252182,2.3971514496894675,2.397130987492084,2.3971157898761875,2.397105172656321,2.3970985473574125
2.4054472525533126,2.405353216587866,2.405273554630829,2.405206309760678,2.405149804372337,2.405102599829521,2.405063461966878,2.405031331594463,2.4050052992789563,2.404984583780627,2.404968513614928
2.4131777082740227,2.4130619268278206,2.4129625970093183,2.412877479008472,2.4128046555468567,2.412742484738985,2.4126895598773075,2.4126446751241204,2.412606796241864,2.4125750356202387,2.41254863096741
2.420640434144943,2.420500948113492,2.4203801892766514,2.420275604559841,2.42018501189243,2.420106545348015,2.4200386084463914,2.419979834402526,2.419929052287323,2.419885258218413,2.419847590830334
2.42784451857535,2.427679270775284,2.427535236421395,2.4274095163896625,2.4272996367873096,2.427203485339424,2.427119257360117,2.4270454098629086,2.4269806225814365,2.4269237648561828,2.426873867500306
2.434798847788595,2.434605680893917,2.434436437608261,2.434287837432786,2.434157085615016,2.434041799637765,2.4339399469230685,2.433849792037968,2.433769851948864,2.433698858092313,2.4336357242183255
2.441512111338277,2.441288765845509,2.4410922917578524,2.440918989200209,2.4407657114163595,2.44062978009536,2.4405089137760885,2.440401167306677,2.4403048806464027,2.4402186355615574,2.4401412189909326
2.447992807397016,2.4477369196199983,2.4475111029002377,2.4473111971693124,2.4471336703155377,2.446975520952257,2.4468341963875857,2.4467075234143563,2.4465936499094223,2.446490995545336,2.4463982101833444
2.454249247831316,2.4539583479263536,2.453700985315744,2.453472495961494,2.4532689267335943,2.4530869240833373,2.452923640331663,2.4527766547791714,2.452643907284284,2.4525236423279466,2.452414361897679
2.4602895630750945,2.459961073097068,2.4596698684754124,2.459410734319594,2.459179258401576,2.4589717040448704,2.4587849033653373,2.458616167597293,2.458463211758956,2.458324091350495,2.458197149148433
2.4661217068135657,2.465752938803579,2.465425501792693,2.4651335798966234,2.464872261184871,2.4646373929319645,2.464425460316252,2.464233484758088,2.464058938703172,2.4638996741738777,2.463753862846529
2.4717534604883613,2.4713416145934537,2.470975459197168,2.47064852386655,2.470355353729408,2.4700913450575417,2.469852607791488,2.469635850579917,2.4694382846286893,2.469257543261358,2.469091614602464
2.477192437634064,2.4767346002594297,2.476327143540344,2.4759628853671147,2.4756357819396704,2.475340741462761,2.475073468717357,2.4748303353764203,2.4746082717795,2.4744046765905607,2.474217341358372
2.482446088055616,2.481939230049752,2.481487790842889,2.48108381578402,2.4807206232978087,2.480392594268136,2.480094996719404,2.4798238398624504,2.47957575256114,2.4793478821040416,2.479137809858142
2.4875217018554547,2.4869626767285844,2.486464474392056,2.486018302885173,2.4856167910325,2.485253750873956,2.4849239803511893,2.4846230994082497,2.484347413817689,2.484093802006973,2.483859620964127
2.4924264133186504,2.491811955494727,2.491264108697463,2.4907731748131203,2.4903310381456487,2.489930898018079,2.489567047179896,2.489234688149863,2.4889297809644084,2.488648916919922,2.488389213828408
2.4971672046637625,2.4964939277663083,2.495893453312861,2.495355103943253,2.494869961304469,2.494430565698604,2.4940306677362467,2.493665022963266,2.493329221983506,2.493019549894176,2.492732869926058
2.501750909666661,2.501015304838645,2.5003591165310257,2.49977061061488,2.4992400046060173,2.4987591309684536,2.498321159335743,2.497920367309195,2.4975519512899984,2.4972118702965678,2.496896716957361
2.506184217164078,2.505382651421988,2.5046675589584533,2.5040260667418064,2.503447463220774,2.502922821608452,2.502444689777773,2.502006834955224,2.501604033474188,2.5012318975703374,2.5008867326255007
2.510473674443225,2.50960238906545,2.5088250969761163,2.5081276993086443,2.507498486921457,2.506927719685044,2.506407280928734,2.5059303935811967,2.505491386926876,2.505085504878121,2.504708748295813
2.514625690523437,2.5136807994730264,2.5128379060921304,2.512081593758652,2.511399083502857,2.5107797649984267,2.510214812194908,2.5096968682737635,2.5092197873530204,2.5087784226327767,2.5083684525423138
2.5186465393354003,2.517624027717216,2.5167120241918304,2.5158936972785826,2.515155122098128,2.514484758426496,2.5138730238904823,2.513311944915379,2.512794871179227,2.512316241921424,2.511871394586859
2.5225423628032013,2.521438085355457,2.5204533546904,2.519569821985643,2.518772336396604,2.518048365169671,2.5173875205057588,2.516781173472812,2.516222138860073,2.5157044178277044,2.515222987635953
2.5263191738341044,2.5251288534542344,2.5240676695928856,2.5231156480213643,2.5222563277679337,2.521476117901354,2.520763773880298,2.5201099711898904,2.519506958088014,2.5189482726569974,2.5184285121199292
2.529982859220662,2.5287020855254165,2.5275606124661394,2.526536726556896,2.52561256829701,2.524773419828488,2.5240071262854418,2.523303625688924,2.52265456691129,2.522052999069005,2.5214931188389227
2.533539182459492,2.532163410379137,2.5309377013269323,2.529838482713944,2.5288464037338843,2.527945547666397,2.5271227934203937,2.5263672979849705,2.525670076764006,2.5250236631218828,2.5244218320198035
