D=0.0 (mm^2/w),D=0.1 (mm^2/w),D=0.2 (mm^2/w),D=0.3 (mm^2/w),D=0.4 (mm^2/w)
0.0,0.0,0.0,0.0,0.0
0.03279584,0.03279584,0.03279584,0.03279584,0.03279584
0.2110053673686567,0.2110053673686567,0.2110053673686567,0.2110053673686567,0.21100536736865672
0.3746834413927463,0.3746834413927463,0.3746834413927463,0.3746834413927463,0.37468344139274634
0.5248828091532796,0.5248828101271953,0.524882811101111,0.5248828120750267,0.5248828130489425
0.6633516712657412,0.6633516834942299,0.6633516957118039,0.6633517079184633,0.6633517201142082
0.7915342242927879,0.7915342803144936,0.7915343361989764,0.7915343919464849,0.7915344475572672
0.9105819719374344,0.9105821405203248,0.9105823084117172,0.9105824756148402,0.9105826421329136
1.0214261162758749,1.0214265151728767,1.0214269117680217,1.021427306079097,1.0214276981237818
1.1248351719405572,1.1248359780602917,1.1248367781895785,1.1248375723933526,1.124838360735905
1.2214556667304566,1.2214571229157385,1.2214585658895856,1.22145999583641,1.2214614129380688
1.3118406793927546,1.3118430973725634,1.311845489509087,1.3118478562432694,1.311850198008198
1.3964701708056138,1.3964739301374975,1.3964776433352584,1.3964813113279797,1.3964849350245008
1.4757657767937384,1.4757713197836786,1.4757767861722717,1.475782177735072,1.4757874962019224
1.5501018006257243,1.5501096233271752,1.5501173261403836,1.550124912203525,1.5501323845616382
1.6198135432325822,1.6198241827026023,1.6198346435914834,1.6198449310997085,1.619855050253122
1.6852037290881472,1.6852177471277232,1.6852315101761346,1.6852450263947536,1.685258303639337
1.746547542860961,1.7465655064966714,1.746583119227586,1.7466003932728509,1.7466173403473553
1.804096634132851,1.804119093113487,1.8041410847866728,1.804162626701943,1.804183735618451
1.858082342880798,1.8581098044693696,1.858136661973714,1.858162939671143,1.8581886606555797
1.908718327703527,1.9087512290450968,1.9087833706848976,1.9088147850642416,1.9088455029252445
1.956202730048499,1.9562414083895328,1.9562791558556047,1.9563160143993792,1.9563520236276037
2.0007199735160253,2.000764634542918,2.000808183347832,2.000850672476967,2.00089215135841
2.042442272941193,2.042492957495426,2.0425423461387235,2.042590502596179,2.0426374866033608
2.081530910300898,2.081587459716673,2.0816425378312906,2.08169621934354,2.081748574048187
2.118137321526152,2.1181993418239204,2.118259737539845,2.1183185929883206,2.118375986719063
2.152404028649749,2.1524708538061934,2.152535940551982,2.1525993798688523,2.152661256317725
2.184465444450527,2.1845360989526026,2.1846049619001,2.1846721258853727,2.184737676847874
2.214448571218883,2.2145217320966326,2.2145931344392094,2.2146628646793443,2.2147310030945517
2.2424736110071826,2.24254756952737,2.2426199187674296,2.242690727819435,2.2427600612593475
2.2686545014177653,2.2687271246080143,2.268798439015385,2.2688684810049287,2.2689372857457837
2.293099388385471,2.293168080546594,2.2932359559358853,2.293302997703182,2.293369193496042
2.315911045359549,2.315972709712148,2.31603428667412,2.316095679587363,2.316156805230724
2.337187246654903,2.3372382472550988,2.337290178964637,2.3373428315074745,2.337396021311016
2.357021101430583,2.3570572254789166,2.357095646190293,2.3571359974172594,2.357177958633081
2.3755013536932785,2.37551777435038,2.3755382686790827,2.375562262621024,2.375589253906764
2.3927126528614364,2.392703892673999,2.3927014657535297,2.3927045268437905,2.392712337810841
2.408735798720293,2.408695693751149,2.4086647423427747,2.408641751924289,2.4086256838138818
2.423647964017695,2.4235696287644064,2.423503913387903,2.423449187351273,2.423404034871446
2.4375228974704344,2.437398690647729,2.4372913087916377,2.4371985763847803,2.437118610732135
2.450431109551507,2.450252600804116,2.450095961264933,2.449958345105892,2.4498372981875574
2.4624400430949884,2.462197980698955,2.4619837790899863,2.4617937764060382,2.461624826269343
2.473614230475028,2.473298510077362,2.4730177055396623,2.472767170647855,2.4725429281178495
2.484015438879098,2.4836150733177416,2.483257866457652,2.482937994494383,2.482650491012523
2.493702804995402,2.493205895233858,2.492761707304106,2.492363019204294,2.4920036958552716
2.5027329602639776,2.5021266674676275,2.501584120801815,2.5010964495215955,2.500656147229464
2.5111601476954646,2.5104306664696225,2.509777566173154,2.509190044143863,2.5086589950132416
2.519036331136681,2.5181688639397466,2.517392180833889,2.51669322862936,2.516061048402612
2.5264112977545885,2.525390030493379,2.5244758853031857,2.523653201497111,2.5229088830939337
2.5333327544172937,2.5321408332257125,2.531074481997014,2.530115034182274,2.529246942284151
2.539846418570037,2.5384659277667483,2.5372317484923244,2.536121765429804,2.5351176320682076
2.5459961041338324,2.5444080453495914,2.5429895257800097,2.5417144906404943,2.5405614117446182
2.5518238028929585,2.550008075353716,2.5483878019641923,2.54693244662347,2.5456168794805865
2.5573697617835585,2.555305143731479,2.5534647918124795,2.5518130921568014,2.550320853736093
2.562672556448055,2.560336687679213,2.5582570125154382,2.556392184711988,2.554708450800894
2.5677691613780738,2.565138526872867,2.56279935597272,2.5607038536577464,2.558813158758492
2.572695016931249,2.569744931551517,2.567125157887256,2.564780670223046,2.5626669081560642
2.577484093474034,2.5741886876996483,2.571266263917084,2.568653714467977,2.5663001396284515
2.582168952872926,2.5785011595501426,2.575253093106129,2.57235263948336,2.5697418686970126
2.586780807529794,2.5827123496041424,2.579114698790128,2.57590573301539,2.5730197479400294
2.591349577132944,2.586850956340832,2.582878827151512,2.5793399766898304,2.576160126709946
2.595903943273762,2.590944429769433,2.5865719735770627,2.582681102990801,2.5791881085537485
2.600471402058968,2.595019024957004,2.5902194369542486,2.58595365013192,2.5821276064759004
2.605078314830397,2.599099853648739,2.593845372026068,2.5891810149420627,2.5850013961682183
2.609749957087659,2.6032109340821177,2.597472839909788,2.5923855038741817,2.587831167317674
2.6145105656936347,2.6073752390823266,2.601123856871896,2.5955883822331858,2.5906375730911355
2.619383384428616,2.6116147425136,2.6048194414398225,2.598809921707767,2.5934402778853634
2.624390707945547,2.6159504641494387,2.608579659920252,2.6020694462810083,2.5962580034210014
2.6295539241663897,2.6204025130138806,2.6124236703841537,2.605385376585569,2.5991085732507098
2.634893555147786,2.6249901292359805,2.616369765169736,2.6087752727610685,2.6020089557438775
2.640429296432917,2.629731724450348,2.62043541194639,2.6122558758638537,2.6049753056034057
2.6461800548956,2.634644920767831,2.624637293375176,2.615843147872619,2.6080230039637966
2.652163985072115,2.6397465883321485,2.6289913453944225,2.619552310327142,2.6111666971141108
2.658398523965931,2.6450528814704004,2.6335127941525336,2.6233978816317625,2.614420333884222
2.6649004243002725,2.6505792734377747,2.638216191603953,2.627393713049995,2.6177972017281004
2.6716857861832497,2.656340589749413,2.643115449778482,2.631553023411791,2.6213099615335596
2.678770087139997,2.6623510400851704,2.648223873728562,2.635888432550418,2.624970681183947
2.6861682104557727,2.668624248745827,2.6535541931538207,2.6404119934816053,2.6287908678935556
2.693894471763216,2.675173283632178,2.659118592696897,2.6451352233334795,2.6327814993351044
2.70196264379584,2.6820106837111446,2.664928740899436,2.6500691330318373,2.636953053574343
2.71038597921823,2.6891484849256746,2.6709958178019315,2.6552242557414,2.6413155378237234
2.719177231431252,2.6965982444975856,2.6773305411659325,2.660610674059854,2.6458785160240454
2.728348673237736,2.7043710635645737,2.6839431912917293,2.6662380459576105,2.6506511352600044
2.737912113240512,2.712477608084351,2.690843634399216,2.672115629452324,2.655642151012625
2.747878909830202,2.720928127930156,2.6980413445338582,2.678252306003184,2.6608599512485918
2.758259982604737,2.729732474092654,2.7055454239537378,2.684656602605874,2.666312579343461
2.7690658210461034,2.738900113893456,2.713364621947312,2.6913367125647434,2.672007755832632
2.78030649026216,2.748440144105027,2.7215073520248274,2.6983005149141897,2.677952898980707
2.791991633582483,2.7583613018605786,2.729981707419183,2.7055555924564225,2.6841551441565015
2.8041304717770035,2.7686719732255978,2.7387954748243795,2.713109248377632,2.690621361997342
2.816731798644535,2.779380199289825,2.7479561462915223,2.7209685213990853,2.697358175342515
2.82980397269525,2.790493679624773,2.757470929193514,2.7291401994137767,2.7043719749116266
2.843354904626543,2.802019772937159,2.767346754160135,2.737630831552885,2.7116689336992805
2.857392040265569,2.813965494732856,2.777590280875012,2.746446738619474,2.7192550200527768
2.8719223386241084,2.826337511789174,2.788207901615049,2.755594021819477,2.7271360093944694
2.886952244682204,2.8391421332153115,2.7992057424011407,2.765078569712036,2.7353174945449603
2.902487656486477,2.8523852978617663,2.810589661616356,2.7749060632927143,2.743804894597401
2.91853388611713,2.866072557819284,2.822365245934309,2.7850819791138246,2.752603462286809
2.9350956140447595,2.880209057726607,2.8345378033859867,2.795611590336169,2.7617182897914216
2.952176836364352,2.8947995095839025,2.847112353377903,2.806499965595795,2.771154312895692
2.9697808043597536,2.9098481627453867,2.860093613458151,2.8177519655578886,2.7809163134365327
2.9879099558178943,2.92535876874043,2.8734859826095978,2.829372237017642,2.7910089199458055
3.0065658374788025,2.9413345405475355,2.887293520831254,2.8413652043948185,2.8014366063928056
3.025749017975799,2.9577781059202217,2.901519924749736,2.853735058454772,2.8122036889205613
3.045458990591214,2.974691454338374,2.9161684989828216,2.866485742073867,2.8233143204591546
3.065694065127788,2.9920758771334093,2.931242122956468,2.879620932851593,2.834772483087927
3.0864512481761524,3.0099319003111806,2.9467432128554942,2.893144022355175,2.8465819780063604
3.1077261110463104,3.028259209573525,2.9626736783666243,2.9070580917652675,2.858746412960606
3.129512644628002,3.0470565670185223,2.979034873850943,2.921365883673344,2.871269186959083
3.151803100454022,3.06632171898186,2.99582754356152,2.936069769762868,2.884153472096284
3.174587817264924,3.0860512944682394,3.0130517605012304,2.95117171408733,2.897402192288957
3.197855032416854,3.1062406936140463,3.030706858496348,2.96667323163894,2.9110179987132194
3.2215906775406555,3.1268839656219605,3.0487913570438008,2.98257534188247,2.925003241714968
3.2457781579547222,3.1479736756169183,3.0673028784749694,2.9988785169096728,2.9393599389492984
3.270398115461908,3.1695007598929417,3.086238056967361,3.015582623851288,2.954089739487672
3.295428174328181,3.1914543690545347,3.105592438928672,3.032686861166336,2.9691938836144143
3.320842670454689,3.213821698607536,3.1253603742768474,3.0501896884127517,2.9846731580170753
3.3466123640227754,3.236587806625972,3.145534898146385,3.068088749090099,3.0005278460584655
3.3727041362216155,3.259735418217447,3.1661076025671187,3.086380786135012,3.016757672802177
3.399080671068768,3.2832447166342225,3.187068497689095,3.1050615496439957,3.033361744448539
3.425700123814091,3.307093121035253,3.208405862168405,3.1241256963975967,3.0503384818247405
3.4525157779856577,3.331255051101228,3.2301060823866767,3.1435666807659315,3.067685547561956
3.479475693800793,3.3557016789457745,3.25215348025443,3.1633766365897977,3.0853997665844157
3.506522351433235,3.380400669057387,3.274530129449252,3.183546249655952,3.10347703953143
3.533592293503984,3.405315907354411,3.2972156600674545,3.2040646204215952,3.1219122487344078
3.560615772151239,3.430407220845696,3.3201870518268817,3.224919116694198,3.1406991563781337
3.58751640713258,3.455630089868152,3.343418416153332,3.246095216041099,3.159830294490422
3.614210862613759,3.480935355424564,3.366880767718425,3.2675763377919345,3.1792968464283557
3.64060855158973,3.506268924774852,3.3905417862777214,3.2893436646091563,3.1990885195645262
3.666611378243009,3.531571479143811,3.4143655699894806,3.311375953741391,3.219193408925121
3.692113529939761,3.5567781881985807,3.4383123817814623,3.3336493382450416,3.2395978515957333
3.717001331950508,3.5818184368162966,3.46233839078011,3.356137118665554,3.2602862717930368
3.741153179301036,3.606615570599613,3.4863954113269795,3.3788095459154226,3.281241016603876
3.764439561335589,3.6310866675922897,3.5104306426839047,3.4016335963756297,3.3024421825210326
3.7867231955175926,3.65514234467996,3.534386413171956,3.424572740585072,3.3238674330603026
3.807859287595478,3.678686608205721,3.558199933198264,3.447586707272385,3.3454918079301366
3.827695935400407,3.701616759350613,3.5818030623946813,3.470631244929785,3.3672875244465663
3.8460746930845255,3.723823365779634,3.605122096914624,3.4936578836312853,3.389223772146143
3.8628313114130535,3.74519031187791,3.628077583796004,3.516613700358828,3.4112665018516104
3.877796667653173,3.765594940531218,3.6505841701798976,3.5394410917184005,3.43337821079219
3.8907978955336735,3.784908299761289,3.672550496050604,3.56207755860048,3.455517725775237
3.9016597215858138,3.802995507521039,3.693879139999548,3.584455508058323,3.4776399868502965
3.910206008867575,3.819716247492624,3.714466628270904,3.606502078432855,3.499695834400708
3.9162615026338847,3.834925407714045,3.734203517969929,3.62813899452848,3.521631803140559
3.9196537650409504,3.848473872192815,3.752974565745804,3.649282460418793,3.543389927082556
3.920215277659709,3.860209473264,3.7706589934309016,3.669843098207029,3.5649075601689733
3.9177856817288985,3.8699781092511727,3.787130861952784,3.6897259417482826,3.586117217913604
3.912214117124319,3.877625027961123,3.802259564254369,3.708830494916677,3.606946446073842
3.903361612484612,3.882996271699021,3.815910446881946,3.7270508644205815,3.627317723040164
3.891103471424065,3.885940273899308,3.827945568255074,3.744275977375502,3.647148403271498
3.875331593928545,3.886309591265063,3.838224599353851,3.760389893774004,3.6663507096895547
3.855956668504203,3.883962748705864,3.846605869604187,3.7752722235775744,3.68483178343718
3.832910169975866,3.8787661676491134,3.852947557096503,3.788798657328081,3.702493799763078
3.8061461003962016,3.87059614183166,3.8571090179621614,3.8008416178709545,3.7192341589698503
3.7756424164767455,3.859340818873815,3.858952244827947,3.811271038941252,3.7349457613014123
3.741402096147136,3.844902141244932,3.8583434389005102,3.819955273945125,3.7495173742934003
3.703453808834034,3.827197697093749,3.855154674589615,3.826762135253003,3.762834100409326
3.661852168070818,3.8061624302363817,3.849265629911272,3.831560060717501,3.7747779516816706
3.6166775601079073,3.781750159673393,3.8405653505249018,3.834219399987304,3.7852285365233316
3.5680355571607083,3.753934862505943,3.828954010498992,3.8346138086019135,3.7940638618354177
3.5160559376756826,3.722711680019048,3.814344629134353,3.832621732964869,3.801161250994744
3.4608913475298406,3.6880976147721465,3.796664700760864,3.828127964300019,3.8063983752652675
3.402715644698832,3.650131896352944,3.775857693677006,3.8210252348401914,3.8096543926792945
3.3417219753002456,3.608876004400336,3.751884375554457,3.811215825063057,3.810811184549943
3.278120631113921,3.564413348852053,3.724723925798093,3.798613147082844,3.809754675619264
3.21213673814262,3.5168486183406094,3.694374800504377,3.783143266639122,3.806376219571566
3.14400782321962,3.466306817507429,3.6608553226050335,3.764746324782264,3.800574027443186
3.0739813019413487,3.412932022122123,3.624203978163912,3.743377820571999,3.792254612566067
3.002311927126778,3.35688588687944,3.584479409119468,3.719009718029614,3.7813342223431596
2.929259233245478,3.298345944448448,3.5417601024428342,3.6916313442531297,3.7677402246254488
2.855085009226212,3.2375037358703533,3.496143785083404,3.661250050926208,3.751412414986015
2.7800508298874904,3.174562812067756,3.447746542601948,3.627891618197434,3.7323042109716864
2.704415674792753,3.10973664451682,3.396701686545737,3.591600387721759,3.71038370060207
2.628433662312516,3.043246480586564,3.343158401055552,3.552439120083456,3.685634515040534
2.552351925670933,2.975319176180983,3.287280202755577,3.510488580341997,3.65805649944352
2.4764086563687204,2.906185035539765,3.229243249705585,3.4658468635309903,3.62766616135667
2.400831338297002,2.836075685618182,3.169234535307142,3.418628479114002,3.594496882416162
2.3258351929088668,2.765222010463309,3.1074500018963493,3.36896321927558,3.558598886188342
2.251621851966867,2.6938521693684776,3.0440926067337086,3.316994840254462,3.5200389623334893
2.1783782697411653,2.62218972114898,2.979370370623222,3.2628795886206987,3.478899954476841
2.106275881305019,2.550451875415429,2.913494436801822,3.2067846055283216,3.435280025793645
2.035470008036954,2.4788478900059614,2.8466771652778986,3.148886241743313,3.389291722004321
1.9660995058916384,2.407577631602024,2.779130285584996,3.0893683149492754,3.341060855963615
1.8982866467320345,2.3368303138992017,2.711063128960752,3.028420338809079,3.2907252411645
1.83213721827426,2.266783424525449,2.642680959180616,2.9662357508395862,3.238433303240446
1.7677408241788377,2.19760184826638,2.574183419537873,2.90301016361578,3.1843425990340655
1.705171362659839,2.1294371902066915,2.505763111620924,2.8389396613563385,3.1286182721966105
1.6444876597444755,2.062427298304184,2.4376043194724635,2.774219161659215,3.0714314728430874
1.5857342320081558,1.996695980869904,2.3698818903458894,2.7090408600714992,3.0129577667856404
1.5289421531908838,1.9323529106202304,2.302760280582134,2.6435927732450586,2.9533755575619316
1.4741299994865202,1.8694937035564845,2.236392772152436,2.578057394561655,2.8928645420791415
1.4213048493745108,1.8082001580426,2.170920862234455,2.5126104742115385,2.8316042183584202
1.3704633155042372,1.748540637178413,2.1064738249286377,2.4474199336953646,2.7697724616708475
1.3215925882082624,1.6905705759503071,2.043168441012582,2.382644922539521,2.707544183323838
1.2746714725773531,1.6343330936879314,1.9811088886072536,2.318435022658106,2.6450900844587846
1.229671403551018,1.5798596920369543,1.9203867849101464,2.254929603289029,2.5825755154014116
1.1865574260502654,1.527171018917194,1.8610813668342223,2.192257326838216,2.5201594493031543
1.1452891297091956,1.476277679696918,1.8032597965461108,2.1305358033684905,2.4579935769716004
1.105821530172574,1.427181077988958,1.746977576560662,2.0698713889628086,2.3962215278782555
1.0681058911599544,1.3798742699681834,1.692279058230154,2.010359120868673,2.3349782203467395
1.0320904835133844,1.3343428178288284,1.6391980271475757,1.9520827802750635,2.274389341884383
0.997721279221258,1.2905656298552377,1.5877583491253089,1.8951150718512864,2.2145709585673563
0.964942579935318,1.2485157764906123,1.5379746609578109,1.839517907834084,2.155629250380902
0.933697580772213,1.208161273686135,1.4898530910635213,1.7853427835080955,2.0976603675154997
0.9039288712252388,1.1694658266406492,1.4433919962556294,1.732631230387061,2.040750400889402
0.8755788758222466,1.1323895287546573,1.398582702241134,1.6814153332516315,1.9849754586627284
0.8485902377727582,1.096889512189814,1.3554102369232877,1.63171829740163,1.9304018392710134
0.8229061492742749,1.0629205478255643,1.3138540471203553,1.5835550529917966,1.8770862905647927
0.7984706324186643,1.03043559362715,1.2738886908577185,1.5369328840888163,1.8250763440088194
0.7752287747784301,0.999386291481287,1.2354844988938851,1.4918520710583816,1.7744107125674853
0.7531269237824822,0.969723413421376,1.1986082005664604,1.448306536008603,1.7251197408662278
0.7321128439331075,0.941397258862316,1.163223510363509,1.4062844822270153,1.677225896445933
0.71213584078942,0.914358005008564,1.1292916728196492,1.365769019804098,1.6307442913843777
0.6931468554647162,0.8885560130031409,1.096771964393106,1.3267387708939475,1.5856832242063972
0.6750985331705991,0.8639420926661961,1.0656221518950415,1.289168449286654,1.5420447328012012
0.6579452691019774,0.8404677288462348,1.035798907816572,1.2530294101283583,1.4998251499695325
0.6416432347044511,0.8180852724916255,1.007258183537095,1.2182901667021684,1.4590156541955723
